Time,Exhaust Mass Flow Rate ,Mass,Thrust,Pressure,Grain Radius,Tank Temperature,Tank Pressure,Quality,N2O Mass Flow Rate,Chamber Pressure,Mass N2O Vapour,Mass N2O Liquid,Total Entropy
0.0,,22.3,0,110000,0.025,300.0,5887436.804562035,0.0030227839818989873,0.0,110000,0.06740808279634741,22.232591917203653,21118.616182129175
0.01,,22.23603111642387,4279.594640248476,5664710.602502452,0.025252158015320565,299.93639998707516,5879204.155881967,0.004485876969201255,0.0,5664710.602502452,0.0997480998716083,22.136283016552262,21058.046942457902
0.02,,22.21800234727937,4360.166568567389,5761341.473066528,0.025327846211667043,299.9181869362573,5876848.34076006,0.004898478074025108,6.396888357613051,5761341.473066528,0.10883439734678636,22.109167949932583,21040.93247900882
0.03,,22.20085925304623,4358.243563176745,5759036.594462831,0.025399619322629373,299.9008467991748,5874606.16140415,0.0052903972391942135,1.8028769144500245,5759036.594462831,0.11745136450005508,22.083407888546173,21024.65827024971
0.04,,22.183714089238915,4356.379083039975,5756801.798046602,0.02547102188911935,299.88350359112445,5872364.293375667,0.005681858294806635,1.71430942331412,5756801.798046602,0.12604471990756094,22.057669369331354,21008.38527563303
0.05,,22.166567553729422,4354.515833353462,5754568.412406076,0.025542056069234063,299.8661579948976,5870122.82491016,0.006072848477196151,1.7145163807313675,5754568.412406076,0.13461420601333132,22.03195334771609,20992.114153594615
0.06,,22.149419724786416,4352.6538506774505,5752336.481458537,0.0256127263934633,299.84881008188273,5867881.765161591,0.0064633691117935085,1.7146535509493073,5752336.481458537,0.1431598752933344,22.006259849493084,20975.84497702931
0.07,,22.13227067981685,4350.793126700228,5750105.995336649,0.025683037300985305,299.83145992261956,5865641.12316321,0.006853421537886616,1.714782894300627,5750105.995336649,0.15168178055939324,21.980588899257455,20959.57781796726
0.08,,22.115120494911064,4348.933653360227,5747876.944471824,0.025752993144014545,299.81410758635127,5863400.907769859,0.00724300711874849,1.7149044969567468,5747876.944471824,0.16017997517662147,21.954940519734443,20943.31274714543
0.09,,22.097969244874196,4347.075422803324,5745649.3195430655,0.02582259819013473,299.7967531410543,5861161.127662204,0.007632127240738413,1.7150184905784025,5745649.3195430655,0.16865451303880402,21.929314731835394,20927.04983403846
0.1,,22.080817003320657,4345.218421949125,5743423.1049628565,0.02589185662459655,299.77939665353284,5858921.791359087,0.00802078331097941,1.7151250036867802,5743423.1049628565,0.17710544851302473,21.903711554807632,20910.78914694904
0.11,,22.063663842454833,4343.362654059006,5741198.304733627,0.025960772552678934,299.76203818920095,5856682.907189712,0.008408976762123727,1.7152241553539211,5741198.304733627,0.18553283653851219,21.87813100591632,20894.530752802195
0.12,,22.046509833460345,4341.50810656619,5738974.903881768,0.02602935000108877,299.7446778124682,5854444.483343648,0.00879670904340077,1.71531608658242,5738974.903881768,0.19393673242742462,21.85257310103292,20878.2747175137
0.13,,22.029355046293144,4339.654772382835,5736752.894000889,0.026097592920698753,299.7273155865338,5852206.527844592,0.00918398162512713,1.7154008994488388,5736752.894000889,0.20231719195855785,21.827037854334588,20862.02110579598
0.14,,22.012199549765473,4337.802644591856,5734532.266888381,0.02616550518829582,299.7099515734712,5849969.048561369,0.009570795996646828,1.715478716720041,5734532.266888381,0.21067427132828648,21.801525278437186,20845.769981238416
0.15,,21.995043411571636,4335.9517164453,5732313.014543501,0.026233090608485724,299.69258583425153,5847732.053211238,0.009957153665609354,1.7155496527671217,5732313.014543501,0.2190080271307674,21.77603538444087,20829.521406332722
0.16,,21.977886698313057,4334.101981358654,5730095.129160561,0.02630035291553539,299.6752184287705,5845495.549363734,0.010343056157256466,1.71561381938368,5730095.129160561,0.22731851633847186,21.750568181974586,20813.275442497623
0.17,,21.960729475522584,4332.253432905833,5727878.603122961,0.026367295775155713,299.6578494158701,5843259.544443454,0.010728505013744513,1.7156713258579244,5727878.603122961,0.23560579628363096,21.72512367923895,20797.03215010279
0.18,,21.943571807688134,4330.406064813644,5725663.428996574,0.026433922786227217,299.640478853364,5841024.045733696,0.011113501793472261,1.7157222790473254,5725663.428996574,0.24386992463992943,21.699701883048203,20780.791588492102
0.19,,21.926413758275597,4328.559870957177,5723449.599524245,0.026500237482470573,299.62310679805864,5838789.060379368,0.011498048070452113,1.7157667834450085,5723449.599524245,0.2521109594052754,21.674302798870322,20764.55381600625
0.2,,21.90925538975115,4326.714845354888,5721237.107619917,0.026566243334064342,299.60573330577586,5836554.595390134,0.011882145433688313,1.7158049412536498,5721237.107619917,0.26032895888484264,21.648926430866307,20748.31889000467
0.21,,21.892096763602897,4324.870982164109,5719025.946363275,0.02663194374921174,299.58835843137416,5834320.6576432,0.012265795486570459,1.7158368524448504,5719025.946363275,0.26852398167456415,21.62357278192833,20732.086866886886
0.22,,21.87493794036191,4323.028275676512,5716816.108994337,0.026697342075658565,299.5709822287696,5832087.25388644,0.012648999846300735,1.7158626148251732,5716816.108994337,0.2766960866454759,21.598241853716434,20715.85780211323
0.23,,21.857778979622676,4321.186720314072,5714607.5889086155,0.026762441602163966,299.55360475095557,5829854.390740899,0.013031760143329804,1.7158823240986705,5714607.5889086155,0.2848453329283588,21.572933646694317,20699.631750225
0.24,,21.840619940062997,4319.34631062476,5712400.379651995,0.026827245559925886,299.5362260500228,5827622.074703814,0.013414078020815363,1.715896073923416,5712400.379651995,0.29297177989898077,21.547648160164016,20683.408764864038
0.25,,21.823460879463305,4317.50704127884,5710194.474916306,0.026891757123962898,299.51884617717826,5825390.312150919,0.013795955134091866,1.715903955967949,5710194.474916306,0.30107548716368476,21.522385392299622,20667.188898791803
0.26,,21.806301854725483,4315.66890706482,5707989.868534484,0.02695597941445395,299.50146518276375,5823159.109339274,0.014177393150166917,1.715906059969184,5707989.868534484,0.3091565145456572,21.497145340179824,20650.97220390789
0.27,,21.78914292189114,4313.8319028860005,5705786.554476458,0.027019915498037714,299.484083116274,5820928.472409678,0.014558393747221624,1.7159024737821922,5705786.554476458,0.3172149220713783,21.471927999819762,20634.758731268055
0.28,,21.77198413615943,4311.996023756882,5703584.526844853,0.027083568389072867,299.46670002637404,5818698.407389067,0.014938958614141977,1.715893283434154,5703584.526844853,0.32525076995784136,21.446733366201588,20618.548531101762
0.29,,21.754825551904332,4310.16126479974,5701383.779870911,0.027146941050860775,299.4493159609165,5816468.920192897,0.015319089450045766,1.7158785731712796,5701383.779870911,0.3332641185997637,21.421561433304568,20602.341652829244
0.3,,21.73766722269155,4308.327621241357,5699184.307910583,0.027210036396831973,299.43193096695813,5814240.016627399,0.01569878796384356,1.7158584255096168,5699184.307910583,0.34125502855762674,21.39641219413392,20586.138145078134
0.31,,21.72050920129488,4306.495088409829,5696986.105440716,0.027272857291697723,299.41454509077613,5812011.702392017,0.016078055873800956,1.715832921278347,5696986.105440716,0.34922356054582687,21.371285640749054,20569.938055699626
0.32,,21.703351539712216,4304.663661731661,5694789.167055589,0.027335406552567745,299.3971583778837,5809783.983081309,0.01645689490711966,1.7158021396667762,5694789.167055589,0.3571697754213176,21.346181764290897,20553.741431784227
0.33,,21.686194289181078,4302.833336728604,5692593.487463133,0.02739768695003565,299.3797708730455,5807556.864187295,0.016835306799529895,1.715766158266517,5692593.487463133,0.36509373417257657,21.3211005550085,20537.5483196771
0.34,,21.66903750019377,4301.004109014981,5690399.061481739,0.027459701209232832,299.36238262029264,5805330.3511013575,0.017213293294896653,1.715725053113813,5690399.061481739,0.37299549790894954,21.29604200228482,20521.358764992983
0.35000000000000003,,21.65188122251215,4299.175974294803,5688205.884036825,0.027521452010852227,299.34499366293727,5803104.449116472,0.017590856144838216,1.715678898730742,5688205.884036825,0.380875127850335,21.271006094661814,20505.17281263078
0.36,,21.634725505181972,4297.348928359306,5686013.950157873,0.027582941992142687,299.3276040435867,5800879.163428897,0.017967997108354884,1.715627768162163,5686013.950157873,0.3887326853171613,21.245992819864814,20488.99050678769
0.37,,21.61757039654694,4295.522967084143,5683823.254975099,0.02764417374787532,299.310213804157,5798654.499140391,0.018344717951472755,1.715571733017648,5683823.254975099,0.39656823172076067,21.22100216482618,20472.811890973066
0.38,,21.600415944262334,4293.698086427173,5681633.793716804,0.027705149831282482,299.2928229858873,5796430.461259846,0.018721020446895404,1.7155108635030543,5681633.793716804,0.40438182855398064,21.196034115708354,20456.637008021855
0.39,,21.583262195308308,4291.8742824258725,5679445.561706281,0.027765872754970528,299.2754316293517,5794207.054705202,0.01909690637366583,1.7154452284607642,5679445.561706281,0.412173537382084,21.171088657926223,20440.465900107738
0.4,,21.566109196002884,4290.051551195102,5677258.554359152,0.027826344991806955,299.2580397744735,5791984.284305226,0.019472377516840875,1.715374895402631,5677258.554359152,0.4199434198339818,21.146165776168903,20424.29860875592
0.41000000000000003,,21.548956992014592,4288.229888924883,5675072.767180713,0.02788656897578329,299.24064746053597,5789762.154801169,0.019847435667178684,1.7152999305423562,5675072.767180713,0.4276915375938099,21.12126545442078,20408.135174855604
0.42,,21.5318056283748,4286.409291878164,5672888.195763268,0.027946547102853964,299.22325472619644,5787540.670848707,0.02022208262083006,1.7152203988292298,5672888.195763268,0.4354179523926489,21.096387675982154,20391.975638672186
0.43,,21.51465514948976,4284.589756388959,5670704.835783903,0.028006281731752312,299.2058616094967,5785319.837019166,0.020596320179038057,1.7151363639790498,5670704.835783903,0.44312272600048097,21.07153242348928,20375.820039859096
0.44,,21.497505599152316,4282.771278859973,5668522.683001653,0.0280657751847844,299.18846814787537,5783099.657801516,0.020970150147857636,1.7150478885042715,5668522.683001653,0.4508059202186343,21.04669967893368,20359.668417469387
0.45,,21.480357020553402,4280.953855759584,5666341.733253894,0.028125029748601697,299.17107437817896,5780880.137603752,0.021343574337870624,1.7149550337443016,5666341.733253894,0.4584675968721827,21.02188942368122,20343.52080996706
0.46,,21.46320945629312,4279.1374836252835,5664161.982460479,0.0281840476749518,299.1536803366726,5778661.2807544265,0.021716594563921863,1.7148578598913373,5664161.982460479,0.46610781780285154,20.99710163849027,20327.377255238007
0.47000000000000003,,21.446062948391756,4277.322159053724,5661983.4266118035,0.028242831181410653,299.13628605905177,5776443.09150419,0.022089212644847554,1.714756426028073,5661983.4266118035,0.4737266448618118,20.972336303529943,20311.237790600873
0.48,,21.428917538300343,4275.507878704342,5659806.061773171,0.02830138245209447,299.11889158045165,5774225.574027295,0.022461430403235824,1.7146507901365722,5659806.061773171,0.4813241399032127,20.94759339839713,20295.102452817497
0.49,,21.41177326691108,4273.694639296368,5657629.884081209,0.028359703638352867,299.10149693545804,5772008.73242285,0.02283324966516677,1.7145410091412652,5657629.884081209,0.4889003647773242,20.922872902133758,20278.971278103174
0.5,,21.394630174567457,4271.882437607033,5655454.88974173,0.028417796859443966,299.0841021581172,5769792.570716489,0.023204672259984144,1.7144271389263095,5655454.88974173,0.4964553813244052,20.89817479324305,20262.84430213667
0.51,,21.377488301074166,4270.071270470181,5653281.075028076,0.028475664203191704,299.06670728194626,5767577.092861379,0.023575700020055847,1.7143092343623307,5653281.075028076,0.5039892513683779,20.87349904970579,20246.721560069993
0.52,,21.360347685706767,4268.261134774449,5651108.436278942,0.028533307726626152,299.0493123399413,5765362.302739851,0.023946334780559842,1.7141873493290645,5651108.436278942,0.5115020367110908,20.848845648995677,20230.603086537947
0.53,,21.343208367221138,4266.452027462,5648936.96989687,0.028590729456607313,299.0319173645882,5763148.204164539,0.024316578379258484,1.7140615367399177,5648936.96989687,0.5189937991263783,20.82421456809476,20214.488915667444
0.54,,21.326070383862685,4264.643945526948,5646766.672346354,0.028647931390432802,299.01452238787107,5760934.800879702,0.024686432656294215,1.7139318485629202,5646766.672346354,0.5264646003546167,20.799605783508067,20198.379081086605
0.55,,21.308933773375372,4262.836886013988,5644597.540152221,0.028704915496430033,298.99712744128124,5758722.096562427,0.025055899453980655,1.7137983358452387,5644597.540152221,0.5339145020972259,20.775019271278147,20182.273615933686
0.56,,21.291798573010517,4261.030846017003,5642429.569897958,0.02876168371453348,298.979732555826,5756510.094823858,0.025424980616609676,1.7136610487312949,5642429.569897958,0.54134356601155,20.750455006998966,20166.172552865744
0.5700000000000001,,21.2746648195354,4259.225822677765,5640262.758224164,0.028818237956847133,298.9623377620367,5754298.7992103305,0.02579367799025879,1.7135200364855037,5640262.758224164,0.5487518537057832,20.725912965829615,20150.07592406715
0.58,,21.257532549241674,4257.421813184608,5638097.101826962,0.028874580108192962,298.9449430899782,5752088.21320472,0.026161993422605136,1.7133753475118125,5638097.101826962,0.5561394267340752,20.701393122507596,20133.98376125789
0.59,,21.240401797953584,4255.618814771337,5635932.597456701,0.028930712026645662,298.92754856925546,5749878.340227202,0.026529928762742582,1.7132270293725502,5635932.597456701,0.563506346591738,20.676895451361844,20117.89609570168
0.6,,21.22327260103601,4253.8168247157355,5633769.241916171,0.028986635544054038,298.9101542290227,5747669.183636702,0.02689748586101381,1.713075128808937,5633769.241916171,0.5708526747108079,20.652419926325205,20101.8129582139
0.61,,21.20614499340231,4252.015840338671,5631607.032059536,0.029042352466549567,298.89276009799073,5745460.746731827,0.027264666568837352,1.7129196917572627,5631607.032059536,0.5781784724555336,20.627966520946778,20085.73437916937
0.62,,21.189019009522013,4250.215859002853,5629445.964790847,0.029097864575042372,298.87536620443467,5743253.03275202,0.027631472738544695,1.7127607633700122,5629445.964790847,0.5854838011181128,20.6035352084039,20069.660388509918
0.63,,21.17189468342832,4248.416878111787,5627286.037062802,0.029153173625705114,298.85797257620106,5741046.04487839,0.027997906223223294,1.7125983880298163,5627286.037062802,0.592768721914586,20.579125961513736,20053.591015751797
0.64,,21.15477204872548,4246.618895108581,5625127.245875311,0.0292082813504451,298.84057924071533,5738839.786234831,0.028363968876559623,1.7124326093693283,5625127.245875311,0.6000332959807629,20.554738752744715,20037.52628999297
0.65,,21.137651138595942,4244.821907474981,5622969.588274349,0.029263189457364922,298.8231862249889,5736634.259889146,0.02872966255269759,1.712263470284013,5622969.588274349,0.6072775843685054,20.530373554227435,20021.46623992017
0.66,,21.12053198580741,4243.025912730482,5620813.061350891,0.029317899631212035,298.80579355562656,5734429.468853883,0.029094989106084768,1.7120910129538187,5620813.061350891,0.6145016480417815,20.50603033776563,20005.410893815886
0.67,,21.103414622719715,4241.230908431241,5618657.662239628,0.02937241353381758,298.7884012588323,5732225.416087154,0.029459950391341597,1.711915278853125,5618657.662239628,0.6217055478732356,20.481709074846478,19989.360279565124
0.68,,21.08629908129154,4239.436892169054,5616503.388117718,0.029426732804524677,298.7710093604171,5730022.104493797,0.029824548263118783,1.711736308769572,5616503.388117718,0.6288893446405368,20.457409736651,19973.314424662076
0.6900000000000001,,21.069185393087018,4237.643861570605,5614350.2362039145,0.029480859060606598,298.75361788580466,5727819.53692626,0.030188784575975167,1.7115541428175602,5614350.2362039145,0.6360530990231866,20.43313229406383,19957.273356216625
0.7000000000000001,,21.052073589282173,4235.851814296579,5612198.2037574975,0.029534793897675077,298.7362268600377,5725617.7161852345,0.03055266118424356,1.7113688204521067,5612198.2037574975,0.6431968715991004,20.40887671768307,19941.2371009607
0.71,,21.034963700671234,4234.0607480405815,5610047.288076982,0.02958853889007904,298.71883630778507,5723416.64502085,0.03091617994190858,1.7111803804844767,5610047.288076982,0.6503207228414671,20.384642977829767,19925.205685254532
0.72,,21.017855757672805,4232.270660528569,5607897.486499439,0.029642095591293993,298.70144625334706,5721216.326133221,0.03127934270249159,1.710988861093927,5607897.486499439,0.6574247131157837,20.36043104455702,19909.179135092734
0.73,,21.000749790335927,4230.481549517795,5605748.796399239,0.029695465534302357,298.68405672066154,5719016.762173635,0.03164215131893576,1.7107942998428867,5605748.796399239,0.6645089026769179,20.33624088765901,19893.157476110297
0.74,,20.983645828345978,4228.693412796303,5603601.215187441,0.02974865023196506,298.66666773331013,5716817.955744982,0.032004607643489016,1.7105967336878065,5603601.215187441,0.6715733516661481,20.31207247667983,19877.14073358842
0.75,,20.9665439010305,4226.9062481818455,5601454.7403105125,0.029801651177384498,298.64927931452365,5714619.909402903,0.032366713527604556,1.7103961989949552,5601454.7403105125,0.6786181201085987,20.287925780921903,19861.128932460266
0.76,,20.949444037364852,4225.1200535214275,5599309.36924977,0.029854469844259265,298.63189148718783,5712422.625656197,0.03272847082182766,1.7101927315476202,5599309.36924977,0.685643267910407,20.263800769454445,19845.122097316536
0.77,,20.932346265977785,4223.334826690279,5597165.099520164,0.029907107687230712,298.6145042738487,5710226.106967956,0.03308988137570254,1.709986366564918,5597165.099520164,0.6926488548563349,20.239697411121448,19829.120252410998
0.78,,20.915250615156886,4221.5505655914485,5595021.928669781,0.029959566142221738,298.59711769671827,5708030.355756151,0.03345094703767083,1.709777138706768,5595021.928669781,0.6996349406072253,20.21561567454966,19813.123421665856
0.79,,20.898157112853927,4219.767268154983,5592879.854278883,0.0300118466267679,298.5797317776797,5705835.374394283,0.03381166965497614,1.7095650820898796,5592879.854278883,0.7066015846976068,20.191555528156318,19797.13162867702
0.8,,20.88106578669008,4217.984932337207,5590738.873959026,0.03006395054034103,298.5623465382921,5703641.165212221,0.0341720510735765,1.7093502302959236,5590738.873959026,0.7135488465334843,20.167516940156595,19781.14489671929
0.81,,20.863976663961047,4216.203556120164,5588598.985352405,0.030115879264665718,298.5449619997963,5701447.730496973,0.03453209313805257,1.7091326163846772,5588598.985352405,0.7204767853900582,20.14349987857099,19765.163248751393
0.8200000000000001,,20.846889771642083,4214.423137511043,5586460.18613117,0.03016763416402871,298.52757818311915,5699255.072493101,0.034891797691525055,1.7089122729032609,5586460.18613117,0.7273854604096585,20.119504311232426,19749.186707420966
0.8300000000000001,,20.829805136392913,4212.643674541352,5584322.473996428,0.03021921658558143,298.5101951088791,5697063.193403736,0.0352511665755685,1.7086892318964415,5584322.473996428,0.734274930599619,20.095530205793295,19733.21529506941
0.84,,20.81272278456256,4210.865165266586,5582185.846677857,0.030270627859635885,298.49281279738966,5694872.095390977,0.035610201630136805,1.708463524916935,5582185.846677857,0.741145254830415,20.071577529732146,19717.24903373666
